PE UV                   SPECTRUM    ASCII       PEDS        1.60        
  -1
AU.SP
96/01/01
00:35:54.00
96/01/01
00:43:58.00
*.dat

400.000000
1









4444

SCAN
1
1


0.0

2.00
MANUAL



VIS




































#HDR
-1
-1
#GR
NM
A
0.00000011920928955078
0.0
700.000000
2.000000
151
8
0.921027
0.027027
#DATA
700.000000	0.027027 
698.000000	0.027917 
696.000000	0.028457 
694.000000	0.029023 
692.000000	0.029983 
690.000000	0.030644 
688.000000	0.031465 
686.000000	0.032165 
684.000000	0.033149 
682.000000	0.033965 
680.000000	0.034834 
678.000000	0.035625 
676.000000	0.036606 
674.000000	0.037912 
672.000000	0.038977 
670.000000	0.040066 
668.000000	0.041288 
666.000000	0.042524 
664.000000	0.043856 
662.000000	0.045173 
660.000000	0.046479 
658.000000	0.048025 
656.000000	0.049400 
654.000000	0.051203 
652.000000	0.052732 
650.000000	0.054549 
648.000000	0.056274 
646.000000	0.057975 
644.000000	0.060087 
642.000000	0.062158 
640.000000	0.064417 
638.000000	0.066743 
636.000000	0.069089 
634.000000	0.071620 
632.000000	0.074211 
630.000000	0.076912 
628.000000	0.079973 
626.000000	0.082974 
624.000000	0.086258 
622.000000	0.089634 
620.000000	0.093192 
618.000000	0.096971 
616.000000	0.100920 
614.000000	0.105234 
612.000000	0.109664 
610.000000	0.114376 
608.000000	0.119453 
606.000000	0.124845 
604.000000	0.130442 
602.000000	0.136525 
600.000000	0.142940 
598.000000	0.149797 
596.000000	0.157120 
594.000000	0.164763 
592.000000	0.172950 
590.000000	0.181778 
588.000000	0.191224 
586.000000	0.201243 
584.000000	0.211968 
582.000000	0.223382 
580.000000	0.235715 
578.000000	0.248846 
576.000000	0.262939 
574.000000	0.277912 
572.000000	0.294099 
570.000000	0.311333 
568.000000	0.329679 
566.000000	0.349244 
564.000000	0.370094 
562.000000	0.392276 
560.000000	0.416092 
558.000000	0.441354 
556.000000	0.467530 
554.000000	0.494908 
552.000000	0.523953 
550.000000	0.554130 
548.000000	0.585112 
546.000000	0.616952 
544.000000	0.649427 
542.000000	0.682000 
540.000000	0.714447 
538.000000	0.745746 
536.000000	0.775561 
534.000000	0.804456 
532.000000	0.831257 
530.000000	0.855240 
528.000000	0.875885 
526.000000	0.892943 
524.000000	0.906290 
522.000000	0.915463 
520.000000	0.920335 
518.000000	0.921027 
516.000000	0.917732 
514.000000	0.910625 
512.000000	0.900056 
510.000000	0.886542 
508.000000	0.870819 
506.000000	0.853199 
504.000000	0.834031 
502.000000	0.813784 
500.000000	0.793151 
498.000000	0.772640 
496.000000	0.752538 
494.000000	0.733197 
492.000000	0.714681 
490.000000	0.696802 
488.000000	0.680215 
486.000000	0.664803 
484.000000	0.650464 
482.000000	0.637300 
480.000000	0.625272 
478.000000	0.614575 
476.000000	0.604957 
474.000000	0.596227 
472.000000	0.588419 
470.000000	0.581492 
468.000000	0.575322 
466.000000	0.569800 
464.000000	0.564862 
462.000000	0.560541 
460.000000	0.556738 
458.000000	0.553431 
456.000000	0.550651 
454.000000	0.548246 
452.000000	0.546114 
450.000000	0.544256 
448.000000	0.542794 
446.000000	0.541793 
444.000000	0.540987 
442.000000	0.540185 
440.000000	0.539601 
438.000000	0.539337 
436.000000	0.539272 
434.000000	0.539221 
432.000000	0.539463 
430.000000	0.539927 
428.000000	0.540464 
426.000000	0.541035 
424.000000	0.541678 
422.000000	0.542731 
420.000000	0.543966 
418.000000	0.545279 
416.000000	0.546652 
414.000000	0.548117 
412.000000	0.549795 
410.000000	0.551602 
408.000000	0.553604 
406.000000	0.555833 
404.000000	0.558174 
402.000000	0.560600 
400.000000	0.563027 

