PE UV                   SPECTRUM    ASCII       PEDS        1.60        
  -1
AU30M.SP
96/01/01
01:52:10.00
96/01/01
01:55:52.00
*.dat

400.000000
1









4444

SCAN
1
1


0.0

2.00
MANUAL



VIS




































#HDR
-1
-1
#GR
NM
A
0.00000011920928955078
0.0
700.000000
2.000000
151
8
0.004691
0.001103
#DATA
700.000000	0.004539 
698.000000	0.004569 
696.000000	0.004566 
694.000000	0.004664 
692.000000	0.004679 
690.000000	0.004585 
688.000000	0.004520 
686.000000	0.004691 
684.000000	0.004640 
682.000000	0.004611 
680.000000	0.004561 
678.000000	0.004492 
676.000000	0.004634 
674.000000	0.004480 
672.000000	0.004409 
670.000000	0.004475 
668.000000	0.004428 
666.000000	0.004502 
664.000000	0.004383 
662.000000	0.004232 
660.000000	0.004381 
658.000000	0.004266 
656.000000	0.004181 
654.000000	0.004286 
652.000000	0.004165 
650.000000	0.004124 
648.000000	0.004198 
646.000000	0.004031 
644.000000	0.003948 
642.000000	0.003906 
640.000000	0.003909 
638.000000	0.003816 
636.000000	0.003929 
634.000000	0.003781 
632.000000	0.003678 
630.000000	0.003611 
628.000000	0.003496 
626.000000	0.003460 
624.000000	0.003354 
622.000000	0.003377 
620.000000	0.003253 
618.000000	0.003204 
616.000000	0.003034 
614.000000	0.003039 
612.000000	0.002981 
610.000000	0.002963 
608.000000	0.002855 
606.000000	0.002735 
604.000000	0.002634 
602.000000	0.002601 
600.000000	0.002693 
598.000000	0.002534 
596.000000	0.002422 
594.000000	0.002325 
592.000000	0.002310 
590.000000	0.002145 
588.000000	0.002139 
586.000000	0.002047 
584.000000	0.001975 
582.000000	0.001819 
580.000000	0.001870 
578.000000	0.001784 
576.000000	0.001739 
574.000000	0.001681 
572.000000	0.001598 
570.000000	0.001603 
568.000000	0.001495 
566.000000	0.001399 
564.000000	0.001352 
562.000000	0.001331 
560.000000	0.001285 
558.000000	0.001263 
556.000000	0.001299 
554.000000	0.001271 
552.000000	0.001203 
550.000000	0.001103 
548.000000	0.001156 
546.000000	0.001116 
544.000000	0.001142 
542.000000	0.001154 
540.000000	0.001141 
538.000000	0.001117 
536.000000	0.001125 
534.000000	0.001106 
532.000000	0.001197 
530.000000	0.001205 
528.000000	0.001185 
526.000000	0.001245 
524.000000	0.001255 
522.000000	0.001228 
520.000000	0.001298 
518.000000	0.001410 
516.000000	0.001442 
514.000000	0.001371 
512.000000	0.001342 
510.000000	0.001397 
508.000000	0.001515 
506.000000	0.001508 
504.000000	0.001546 
502.000000	0.001548 
500.000000	0.001539 
498.000000	0.001529 
496.000000	0.001542 
494.000000	0.001594 
492.000000	0.001601 
490.000000	0.001590 
488.000000	0.001640 
486.000000	0.001680 
484.000000	0.001656 
482.000000	0.001651 
480.000000	0.001681 
478.000000	0.001721 
476.000000	0.001786 
474.000000	0.001835 
472.000000	0.001995 
470.000000	0.002061 
468.000000	0.002038 
466.000000	0.002074 
464.000000	0.002123 
462.000000	0.002271 
460.000000	0.002296 
458.000000	0.002267 
456.000000	0.002225 
454.000000	0.002197 
452.000000	0.002270 
450.000000	0.002261 
448.000000	0.002180 
446.000000	0.002260 
444.000000	0.002374 
442.000000	0.002307 
440.000000	0.002190 
438.000000	0.002126 
436.000000	0.002176 
434.000000	0.002228 
432.000000	0.002219 
430.000000	0.002236 
428.000000	0.002179 
426.000000	0.002100 
424.000000	0.002141 
422.000000	0.002148 
420.000000	0.002268 
418.000000	0.002259 
416.000000	0.002289 
414.000000	0.002300 
412.000000	0.002328 
410.000000	0.002460 
408.000000	0.002478 
406.000000	0.002403 
404.000000	0.002399 
402.000000	0.002391 
400.000000	0.002588 

