PE UV                   SPECTRUM    ASCII       PEDS        1.60        
  -1
AU3H43M.SP
96/01/01
05:04:42.00
96/01/01
05:07:31.00
*.dat

400.000000
1









4444

SCAN
1
1


0.0

2.00
MANUAL



VIS




































#HDR
-1
-1
#GR
NM
A
0.00000011920928955078
0.0
700.000000
2.000000
151
8
0.121744
0.047858
#DATA
700.000000	0.047858 
698.000000	0.048153 
696.000000	0.048637 
694.000000	0.048960 
692.000000	0.049387 
690.000000	0.049576 
688.000000	0.050116 
686.000000	0.050499 
684.000000	0.050986 
682.000000	0.051157 
680.000000	0.051471 
678.000000	0.052149 
676.000000	0.052357 
674.000000	0.053055 
672.000000	0.053356 
670.000000	0.053590 
668.000000	0.054207 
666.000000	0.054542 
664.000000	0.055209 
662.000000	0.055523 
660.000000	0.056021 
658.000000	0.056672 
656.000000	0.057031 
654.000000	0.057760 
652.000000	0.058022 
650.000000	0.058616 
648.000000	0.058966 
646.000000	0.059536 
644.000000	0.060042 
642.000000	0.060358 
640.000000	0.061207 
638.000000	0.061720 
636.000000	0.062436 
634.000000	0.063043 
632.000000	0.063408 
630.000000	0.063964 
628.000000	0.064504 
626.000000	0.064880 
624.000000	0.065552 
622.000000	0.066291 
620.000000	0.066618 
618.000000	0.067007 
616.000000	0.067713 
614.000000	0.068214 
612.000000	0.068647 
610.000000	0.069410 
608.000000	0.069871 
606.000000	0.070290 
604.000000	0.070823 
602.000000	0.071345 
600.000000	0.071839 
598.000000	0.072528 
596.000000	0.072940 
594.000000	0.073357 
592.000000	0.074014 
590.000000	0.074376 
588.000000	0.075148 
586.000000	0.075668 
584.000000	0.076388 
582.000000	0.077108 
580.000000	0.077690 
578.000000	0.078502 
576.000000	0.079321 
574.000000	0.080005 
572.000000	0.080943 
570.000000	0.082009 
568.000000	0.082933 
566.000000	0.084107 
564.000000	0.085175 
562.000000	0.086572 
560.000000	0.088001 
558.000000	0.089357 
556.000000	0.090956 
554.000000	0.092659 
552.000000	0.094302 
550.000000	0.096061 
548.000000	0.098047 
546.000000	0.100077 
544.000000	0.102151 
542.000000	0.104112 
540.000000	0.106285 
538.000000	0.108320 
536.000000	0.110389 
534.000000	0.112368 
532.000000	0.114262 
530.000000	0.116056 
528.000000	0.117453 
526.000000	0.118893 
524.000000	0.119904 
522.000000	0.120725 
520.000000	0.121402 
518.000000	0.121618 
516.000000	0.121744 
514.000000	0.121323 
512.000000	0.120687 
510.000000	0.119862 
508.000000	0.118688 
506.000000	0.117379 
504.000000	0.115823 
502.000000	0.114207 
500.000000	0.112384 
498.000000	0.110642 
496.000000	0.108840 
494.000000	0.107101 
492.000000	0.105488 
490.000000	0.103932 
488.000000	0.102471 
486.000000	0.100944 
484.000000	0.099625 
482.000000	0.098596 
480.000000	0.097591 
478.000000	0.096624 
476.000000	0.095886 
474.000000	0.095085 
472.000000	0.094296 
470.000000	0.093732 
468.000000	0.093400 
466.000000	0.093067 
464.000000	0.092690 
462.000000	0.092417 
460.000000	0.092137 
458.000000	0.091874 
456.000000	0.091747 
454.000000	0.091726 
452.000000	0.091697 
450.000000	0.091773 
448.000000	0.091729 
446.000000	0.091696 
444.000000	0.091820 
442.000000	0.091916 
440.000000	0.092035 
438.000000	0.092279 
436.000000	0.092414 
434.000000	0.092489 
432.000000	0.092869 
430.000000	0.093151 
428.000000	0.093331 
426.000000	0.093624 
424.000000	0.093930 
422.000000	0.094242 
420.000000	0.094565 
418.000000	0.094985 
416.000000	0.095329 
414.000000	0.095639 
412.000000	0.096105 
410.000000	0.096475 
408.000000	0.096894 
406.000000	0.097297 
404.000000	0.097778 
402.000000	0.098211 
400.000000	0.098606 

