PE UV                   SPECTRUM    ASCII       PEDS        1.60        
  -1
AU75H20.SP
96/01/01
04:05:20.00
96/01/01
04:07:25.00
*.dat

400.000000
1









4444

SCAN
1
1


0.0

2.00
MANUAL



VIS




































#HDR
-1
-1
#GR
NM
A
0.00000011920928955078
0.0
700.000000
2.000000
151
8
0.009156
-0.034299
#DATA
700.000000	-0.033909 
698.000000	-0.033739 
696.000000	-0.033758 
694.000000	-0.033964 
692.000000	-0.033886 
690.000000	-0.033884 
688.000000	-0.034299 
686.000000	-0.033808 
684.000000	-0.033867 
682.000000	-0.033948 
680.000000	-0.033805 
678.000000	-0.034029 
676.000000	-0.033797 
674.000000	-0.033748 
672.000000	-0.033730 
670.000000	-0.033402 
668.000000	-0.033544 
666.000000	-0.033205 
664.000000	-0.033305 
662.000000	-0.033130 
660.000000	-0.032998 
658.000000	-0.032990 
656.000000	-0.032749 
654.000000	-0.032765 
652.000000	-0.032588 
650.000000	-0.032475 
648.000000	-0.032138 
646.000000	-0.032115 
644.000000	-0.031999 
642.000000	-0.031722 
640.000000	-0.031584 
638.000000	-0.031239 
636.000000	-0.031130 
634.000000	-0.030952 
632.000000	-0.030565 
630.000000	-0.030481 
628.000000	-0.030124 
626.000000	-0.030021 
624.000000	-0.029824 
622.000000	-0.029493 
620.000000	-0.029256 
618.000000	-0.029089 
616.000000	-0.028866 
614.000000	-0.028642 
612.000000	-0.028398 
610.000000	-0.028097 
608.000000	-0.027924 
606.000000	-0.027546 
604.000000	-0.027517 
602.000000	-0.027162 
600.000000	-0.027059 
598.000000	-0.026798 
596.000000	-0.026652 
594.000000	-0.026411 
592.000000	-0.026180 
590.000000	-0.026061 
588.000000	-0.025541 
586.000000	-0.025301 
584.000000	-0.024773 
582.000000	-0.024289 
580.000000	-0.023791 
578.000000	-0.023076 
576.000000	-0.022533 
574.000000	-0.021756 
572.000000	-0.020915 
570.000000	-0.020069 
568.000000	-0.019008 
566.000000	-0.018067 
564.000000	-0.016911 
562.000000	-0.015699 
560.000000	-0.014221 
558.000000	-0.012360 
556.000000	-0.010857 
554.000000	-0.009241 
552.000000	-0.007703 
550.000000	-0.006014 
548.000000	-0.004372 
546.000000	-0.002687 
544.000000	-0.000959 
542.000000	0.000628  
540.000000	0.002268  
538.000000	0.003725  
536.000000	0.005059  
534.000000	0.006271  
532.000000	0.007280  
530.000000	0.008141  
528.000000	0.008625  
526.000000	0.009039  
524.000000	0.009156  
522.000000	0.009004  
520.000000	0.008628  
518.000000	0.008126  
516.000000	0.007400  
514.000000	0.006468  
512.000000	0.005280  
510.000000	0.004075  
508.000000	0.002814  
506.000000	0.001538  
504.000000	0.000174  
502.000000	-0.001250 
500.000000	-0.002608 
498.000000	-0.004020 
496.000000	-0.005259 
494.000000	-0.006574 
492.000000	-0.007783 
490.000000	-0.008822 
488.000000	-0.009855 
486.000000	-0.010871 
484.000000	-0.011950 
482.000000	-0.013065 
480.000000	-0.014158 
478.000000	-0.014832 
476.000000	-0.015430 
474.000000	-0.016074 
472.000000	-0.016570 
470.000000	-0.017028 
468.000000	-0.017362 
466.000000	-0.017660 
464.000000	-0.017949 
462.000000	-0.018204 
460.000000	-0.018545 
458.000000	-0.018860 
456.000000	-0.019139 
454.000000	-0.019292 
452.000000	-0.019441 
450.000000	-0.019453 
448.000000	-0.019618 
446.000000	-0.019727 
444.000000	-0.019721 
442.000000	-0.019674 
440.000000	-0.019752 
438.000000	-0.019854 
436.000000	-0.019941 
434.000000	-0.019980 
432.000000	-0.019985 
430.000000	-0.020044 
428.000000	-0.020014 
426.000000	-0.020068 
424.000000	-0.020009 
422.000000	-0.019927 
420.000000	-0.020016 
418.000000	-0.019928 
416.000000	-0.019935 
414.000000	-0.019921 
412.000000	-0.019697 
410.000000	-0.019614 
408.000000	-0.019705 
406.000000	-0.019644 
404.000000	-0.019647 
402.000000	-0.019571 
400.000000	-0.019465 

