PE UV                   SPECTRUM    ASCII       PEDS        1.60        
  -1
AU75PENT.SP
96/01/01
04:38:31.00
96/01/01
04:40:34.00
*.dat

400.000000
1









4444

SCAN
1
1


0.0

2.00
MANUAL



VIS




































#HDR
-1
-1
#GR
NM
A
0.00000011920928955078
0.0
700.000000
2.000000
151
8
0.021930
-0.011470
#DATA
700.000000	-0.011231 
698.000000	-0.011025 
696.000000	-0.011084 
694.000000	-0.010995 
692.000000	-0.011113 
690.000000	-0.011132 
688.000000	-0.011410 
686.000000	-0.011307 
684.000000	-0.011426 
682.000000	-0.011282 
680.000000	-0.011382 
678.000000	-0.011470 
676.000000	-0.011291 
674.000000	-0.011400 
672.000000	-0.011125 
670.000000	-0.011374 
668.000000	-0.011302 
666.000000	-0.011132 
664.000000	-0.011207 
662.000000	-0.010973 
660.000000	-0.010981 
658.000000	-0.010753 
656.000000	-0.010830 
654.000000	-0.010540 
652.000000	-0.010432 
650.000000	-0.010332 
648.000000	-0.009968 
646.000000	-0.010102 
644.000000	-0.009996 
642.000000	-0.010029 
640.000000	-0.009526 
638.000000	-0.009495 
636.000000	-0.009342 
634.000000	-0.009389 
632.000000	-0.009391 
630.000000	-0.009194 
628.000000	-0.009253 
626.000000	-0.009103 
624.000000	-0.009091 
622.000000	-0.009020 
620.000000	-0.008787 
618.000000	-0.008834 
616.000000	-0.008664 
614.000000	-0.008410 
612.000000	-0.008418 
610.000000	-0.008186 
608.000000	-0.007985 
606.000000	-0.007880 
604.000000	-0.007611 
602.000000	-0.007550 
600.000000	-0.007288 
598.000000	-0.006882 
596.000000	-0.006742 
594.000000	-0.006352 
592.000000	-0.006205 
590.000000	-0.005853 
588.000000	-0.005298 
586.000000	-0.004868 
584.000000	-0.004181 
582.000000	-0.003782 
580.000000	-0.003034 
578.000000	-0.002399 
576.000000	-0.001621 
574.000000	-0.000835 
572.000000	0.000060  
570.000000	0.001116  
568.000000	0.002047  
566.000000	0.003250  
564.000000	0.004256  
562.000000	0.005578  
560.000000	0.006850  
558.000000	0.007940  
556.000000	0.009437  
554.000000	0.010677  
552.000000	0.011954  
550.000000	0.013340  
548.000000	0.014701  
546.000000	0.015996  
544.000000	0.017200  
542.000000	0.018302  
540.000000	0.019207  
538.000000	0.020203  
536.000000	0.020886  
534.000000	0.021464  
532.000000	0.021745  
530.000000	0.021930  
528.000000	0.021885  
526.000000	0.021592  
524.000000	0.021224  
522.000000	0.020540  
520.000000	0.019894  
518.000000	0.018997  
516.000000	0.018128  
514.000000	0.016841  
512.000000	0.015621  
510.000000	0.014385  
508.000000	0.013244  
506.000000	0.012030  
504.000000	0.010888  
502.000000	0.009725  
500.000000	0.008542  
498.000000	0.007397  
496.000000	0.006319  
494.000000	0.005402  
492.000000	0.004443  
490.000000	0.003642  
488.000000	0.002725  
486.000000	0.001929  
484.000000	0.001187  
482.000000	0.000498  
480.000000	-0.000227 
478.000000	-0.000667 
476.000000	-0.001082 
474.000000	-0.001533 
472.000000	-0.001814 
470.000000	-0.002124 
468.000000	-0.002392 
466.000000	-0.002486 
464.000000	-0.002565 
462.000000	-0.002715 
460.000000	-0.002775 
458.000000	-0.002959 
456.000000	-0.003085 
454.000000	-0.003101 
452.000000	-0.003110 
450.000000	-0.003046 
448.000000	-0.003124 
446.000000	-0.003147 
444.000000	-0.003151 
442.000000	-0.003252 
440.000000	-0.003260 
438.000000	-0.003323 
436.000000	-0.003370 
434.000000	-0.003402 
432.000000	-0.003341 
430.000000	-0.003365 
428.000000	-0.003439 
426.000000	-0.003515 
424.000000	-0.003519 
422.000000	-0.003453 
420.000000	-0.003541 
418.000000	-0.003509 
416.000000	-0.003437 
414.000000	-0.003486 
412.000000	-0.003372 
410.000000	-0.003397 
408.000000	-0.003407 
406.000000	-0.003383 
404.000000	-0.003326 
402.000000	-0.003285 
400.000000	-0.003298 

