PE UV                   SPECTRUM    ASCII       PEDS        1.60        
  -1
AU75AIR.SP
96/01/01
03:59:29.00
96/01/01
04:01:35.00
*.dat

400.000000
1









4444

SCAN
1
1


0.0

2.00
MANUAL



VIS




































#HDR
-1
-1
#GR
NM
A
0.00000011920928955078
0.0
700.000000
2.000000
151
8
0.050015
0.024436
#DATA
700.000000	0.024436 
698.000000	0.024622 
696.000000	0.024906 
694.000000	0.024882 
692.000000	0.025153 
690.000000	0.025106 
688.000000	0.025266 
686.000000	0.025547 
684.000000	0.025587 
682.000000	0.025805 
680.000000	0.025882 
678.000000	0.026150 
676.000000	0.026106 
674.000000	0.026332 
672.000000	0.026348 
670.000000	0.026686 
668.000000	0.026694 
666.000000	0.026933 
664.000000	0.027024 
662.000000	0.026834 
660.000000	0.027178 
658.000000	0.027112 
656.000000	0.027444 
654.000000	0.027375 
652.000000	0.027378 
650.000000	0.027743 
648.000000	0.027726 
646.000000	0.027944 
644.000000	0.027844 
642.000000	0.028015 
640.000000	0.028078 
638.000000	0.028296 
636.000000	0.028265 
634.000000	0.028420 
632.000000	0.028393 
630.000000	0.028550 
628.000000	0.028723 
626.000000	0.028685 
624.000000	0.028878 
622.000000	0.028839 
620.000000	0.029050 
618.000000	0.029032 
616.000000	0.029167 
614.000000	0.029336 
612.000000	0.029361 
610.000000	0.029504 
608.000000	0.029478 
606.000000	0.029670 
604.000000	0.029743 
602.000000	0.029887 
600.000000	0.029908 
598.000000	0.030141 
596.000000	0.030103 
594.000000	0.030188 
592.000000	0.030227 
590.000000	0.030366 
588.000000	0.030589 
586.000000	0.030586 
584.000000	0.030779 
582.000000	0.030779 
580.000000	0.031142 
578.000000	0.031165 
576.000000	0.031481 
574.000000	0.031639 
572.000000	0.031929 
570.000000	0.032140 
568.000000	0.032521 
566.000000	0.032741 
564.000000	0.033202 
562.000000	0.033547 
560.000000	0.034071 
558.000000	0.034518 
556.000000	0.035194 
554.000000	0.035763 
552.000000	0.036442 
550.000000	0.037008 
548.000000	0.037805 
546.000000	0.038577 
544.000000	0.039439 
542.000000	0.040230 
540.000000	0.041154 
538.000000	0.042064 
536.000000	0.043014 
534.000000	0.043959 
532.000000	0.044933 
530.000000	0.045736 
528.000000	0.046529 
526.000000	0.047241 
524.000000	0.047961 
522.000000	0.048521 
520.000000	0.049112 
518.000000	0.049443 
516.000000	0.049825 
514.000000	0.049939 
512.000000	0.050015 
510.000000	0.049798 
508.000000	0.049631 
506.000000	0.049334 
504.000000	0.049051 
502.000000	0.048557 
500.000000	0.048046 
498.000000	0.047490 
496.000000	0.046971 
494.000000	0.046396 
492.000000	0.045803 
490.000000	0.045181 
488.000000	0.044702 
486.000000	0.044239 
484.000000	0.043810 
482.000000	0.043383 
480.000000	0.043075 
478.000000	0.042730 
476.000000	0.042463 
474.000000	0.042211 
472.000000	0.042122 
470.000000	0.041956 
468.000000	0.041789 
466.000000	0.041785 
464.000000	0.041696 
462.000000	0.041692 
460.000000	0.041627 
458.000000	0.041534 
456.000000	0.041462 
454.000000	0.041485 
452.000000	0.041492 
450.000000	0.041554 
448.000000	0.041632 
446.000000	0.041680 
444.000000	0.041814 
442.000000	0.041900 
440.000000	0.041899 
438.000000	0.042001 
436.000000	0.042079 
434.000000	0.042248 
432.000000	0.042521 
430.000000	0.042620 
428.000000	0.042735 
426.000000	0.042792 
424.000000	0.043035 
422.000000	0.043183 
420.000000	0.043369 
418.000000	0.043619 
416.000000	0.043793 
414.000000	0.043989 
412.000000	0.044172 
410.000000	0.044421 
408.000000	0.044680 
406.000000	0.044989 
404.000000	0.045231 
402.000000	0.045497 
400.000000	0.045840 

