PE UV                   SPECTRUM    ASCII       PEDS        1.60        
  -1
AU75NIT.SP
96/01/01
04:54:06.00
96/01/01
04:57:14.00
*.dat

400.000000
1









4444

SCAN
1
1


0.0

2.00
MANUAL



VIS




































#HDR
-1
-1
#GR
NM
A
0.00000011920928955078
0.0
700.000000
2.000000
151
8
0.034645
-0.040861
#DATA
700.000000	-0.040532 
698.000000	-0.040419 
696.000000	-0.040467 
694.000000	-0.040659 
692.000000	-0.040339 
690.000000	-0.040428 
688.000000	-0.040656 
686.000000	-0.040724 
684.000000	-0.040672 
682.000000	-0.040527 
680.000000	-0.040669 
678.000000	-0.040861 
676.000000	-0.040817 
674.000000	-0.040590 
672.000000	-0.040794 
670.000000	-0.040849 
668.000000	-0.040683 
666.000000	-0.040574 
664.000000	-0.040765 
662.000000	-0.040795 
660.000000	-0.040543 
658.000000	-0.040511 
656.000000	-0.040634 
654.000000	-0.040507 
652.000000	-0.040458 
650.000000	-0.040397 
648.000000	-0.040317 
646.000000	-0.040219 
644.000000	-0.040361 
642.000000	-0.040144 
640.000000	-0.039938 
638.000000	-0.039900 
636.000000	-0.039829 
634.000000	-0.039647 
632.000000	-0.039630 
630.000000	-0.039552 
628.000000	-0.039404 
626.000000	-0.039224 
624.000000	-0.039251 
622.000000	-0.039046 
620.000000	-0.038847 
618.000000	-0.038798 
616.000000	-0.038615 
614.000000	-0.038529 
612.000000	-0.038470 
610.000000	-0.038104 
608.000000	-0.038137 
606.000000	-0.038032 
604.000000	-0.037756 
602.000000	-0.037625 
600.000000	-0.037499 
598.000000	-0.037236 
596.000000	-0.036907 
594.000000	-0.036842 
592.000000	-0.036338 
590.000000	-0.036121 
588.000000	-0.035684 
586.000000	-0.035154 
584.000000	-0.034673 
582.000000	-0.034131 
580.000000	-0.033557 
578.000000	-0.032983 
576.000000	-0.032295 
574.000000	-0.031621 
572.000000	-0.030637 
570.000000	-0.029748 
568.000000	-0.028882 
566.000000	-0.027751 
564.000000	-0.026861 
562.000000	-0.025572 
560.000000	-0.024361 
558.000000	-0.023035 
556.000000	-0.021626 
554.000000	-0.020253 
552.000000	-0.018831 
550.000000	-0.017571 
548.000000	-0.016044 
546.000000	-0.014784 
544.000000	-0.013546 
542.000000	-0.012244 
540.000000	-0.011247 
538.000000	-0.010185 
536.000000	-0.009279 
534.000000	-0.008711 
532.000000	-0.008034 
530.000000	-0.007743 
528.000000	-0.007771 
526.000000	-0.007750 
524.000000	-0.007981 
522.000000	-0.008642 
520.000000	-0.009218 
518.000000	-0.009804 
516.000000	-0.010616 
514.000000	-0.011838 
512.000000	-0.012980 
510.000000	-0.014125 
508.000000	-0.015470 
506.000000	-0.016637 
504.000000	-0.017843 
502.000000	-0.019109 
500.000000	-0.020271 
498.000000	-0.021479 
496.000000	-0.022462 
494.000000	-0.023245 
492.000000	-0.024088 
490.000000	-0.024800 
488.000000	-0.025586 
486.000000	-0.026242 
484.000000	-0.026821 
482.000000	-0.027279 
480.000000	-0.027764 
478.000000	-0.028364 
476.000000	-0.028850 
474.000000	-0.029372 
472.000000	-0.029750 
470.000000	-0.030184 
468.000000	-0.030446 
466.000000	-0.030629 
464.000000	-0.030754 
462.000000	-0.030908 
460.000000	-0.031179 
458.000000	-0.031343 
456.000000	-0.031416 
454.000000	-0.031414 
452.000000	-0.031382 
450.000000	-0.031283 
448.000000	-0.031237 
446.000000	-0.031208 
444.000000	-0.030994 
442.000000	-0.030879 
440.000000	-0.030761 
438.000000	-0.030704 
436.000000	-0.030689 
434.000000	-0.030503 
432.000000	-0.030359 
430.000000	-0.030083 
428.000000	-0.029836 
426.000000	-0.029552 
424.000000	-0.028999 
422.000000	-0.028421 
420.000000	-0.027572 
418.000000	-0.026343 
416.000000	-0.024591 
414.000000	-0.022263 
412.000000	-0.019031 
410.000000	-0.014792 
408.000000	-0.009172 
406.000000	-0.001853 
404.000000	0.007648  
402.000000	0.019684  
400.000000	0.034645  

