PE UV                   SPECTRUM    ASCII       PEDS        1.60        
  -1
AU75PROP.SP
96/01/01
04:30:36.00
96/01/01
04:33:10.00
*.dat

400.000000
1









4444

SCAN
1
1


0.0

2.00
MANUAL



VIS




































#HDR
-1
-1
#GR
NM
A
0.00000011920928955078
0.0
700.000000
2.000000
151
8
0.012708
-0.030273
#DATA
700.000000	-0.029803 
698.000000	-0.030049 
696.000000	-0.030065 
694.000000	-0.030153 
692.000000	-0.030059 
690.000000	-0.029901 
688.000000	-0.030118 
686.000000	-0.030140 
684.000000	-0.030273 
682.000000	-0.030067 
680.000000	-0.030198 
678.000000	-0.030027 
676.000000	-0.030076 
674.000000	-0.030120 
672.000000	-0.029815 
670.000000	-0.029877 
668.000000	-0.029863 
666.000000	-0.029586 
664.000000	-0.029542 
662.000000	-0.029333 
660.000000	-0.029275 
658.000000	-0.028951 
656.000000	-0.028913 
654.000000	-0.028801 
652.000000	-0.028593 
650.000000	-0.028371 
648.000000	-0.027966 
646.000000	-0.028095 
644.000000	-0.027898 
642.000000	-0.027728 
640.000000	-0.027420 
638.000000	-0.027215 
636.000000	-0.027251 
634.000000	-0.026917 
632.000000	-0.026871 
630.000000	-0.026628 
628.000000	-0.026715 
626.000000	-0.026476 
624.000000	-0.026402 
622.000000	-0.026080 
620.000000	-0.026060 
618.000000	-0.025856 
616.000000	-0.025755 
614.000000	-0.025522 
612.000000	-0.025338 
610.000000	-0.025243 
608.000000	-0.025015 
606.000000	-0.024900 
604.000000	-0.024605 
602.000000	-0.024499 
600.000000	-0.024130 
598.000000	-0.023923 
596.000000	-0.023603 
594.000000	-0.023326 
592.000000	-0.022916 
590.000000	-0.022527 
588.000000	-0.021919 
586.000000	-0.021387 
584.000000	-0.020764 
582.000000	-0.020020 
580.000000	-0.019236 
578.000000	-0.018442 
576.000000	-0.017496 
574.000000	-0.016425 
572.000000	-0.015380 
570.000000	-0.014087 
568.000000	-0.012846 
566.000000	-0.011384 
564.000000	-0.009920 
562.000000	-0.008330 
560.000000	-0.006706 
558.000000	-0.004601 
556.000000	-0.002723 
554.000000	-0.001077 
552.000000	0.000722  
550.000000	0.002354  
548.000000	0.004088  
546.000000	0.005605  
544.000000	0.007121  
542.000000	0.008559  
540.000000	0.009710  
538.000000	0.010753  
536.000000	0.011634  
534.000000	0.012157  
532.000000	0.012617  
530.000000	0.012708  
528.000000	0.012561  
526.000000	0.012212  
524.000000	0.011657  
522.000000	0.010839  
520.000000	0.009826  
518.000000	0.008780  
516.000000	0.007513  
514.000000	0.006065  
512.000000	0.004489  
510.000000	0.002954  
508.000000	0.001368  
506.000000	-0.000193 
504.000000	-0.001634 
502.000000	-0.003204 
500.000000	-0.004680 
498.000000	-0.006090 
496.000000	-0.007329 
494.000000	-0.008506 
492.000000	-0.009772 
490.000000	-0.010733 
488.000000	-0.011796 
486.000000	-0.012715 
484.000000	-0.013622 
482.000000	-0.014833 
480.000000	-0.015841 
478.000000	-0.016329 
476.000000	-0.016813 
474.000000	-0.017329 
472.000000	-0.017774 
470.000000	-0.018066 
468.000000	-0.018256 
466.000000	-0.018422 
464.000000	-0.018593 
462.000000	-0.018716 
460.000000	-0.018901 
458.000000	-0.019017 
456.000000	-0.019139 
454.000000	-0.019182 
452.000000	-0.019127 
450.000000	-0.019079 
448.000000	-0.019043 
446.000000	-0.018940 
444.000000	-0.018741 
442.000000	-0.018623 
440.000000	-0.018438 
438.000000	-0.018380 
436.000000	-0.018231 
434.000000	-0.018079 
432.000000	-0.017761 
430.000000	-0.017439 
428.000000	-0.017388 
426.000000	-0.017234 
424.000000	-0.016923 
422.000000	-0.016705 
420.000000	-0.016455 
418.000000	-0.016126 
416.000000	-0.015753 
414.000000	-0.015283 
412.000000	-0.014891 
410.000000	-0.014464 
408.000000	-0.013981 
406.000000	-0.013438 
404.000000	-0.012912 
402.000000	-0.012456 
400.000000	-0.011891 

