PE UV                   SPECTRUM    ASCII       PEDS        1.60        
  -1
AU75GLY.SP
96/01/01
04:45:27.00
96/01/01
04:47:34.00
*.dat

400.000000
1









4444

SCAN
1
1


0.0

2.00
MANUAL



VIS




































#HDR
-1
-1
#GR
NM
A
0.00000011920928955078
0.0
700.000000
2.000000
151
8
0.108123
0.071441
#DATA
700.000000	0.073822 
698.000000	0.074050 
696.000000	0.073908 
694.000000	0.073977 
692.000000	0.074037 
690.000000	0.073839 
688.000000	0.074032 
686.000000	0.073713 
684.000000	0.073800 
682.000000	0.073889 
680.000000	0.073692 
678.000000	0.073550 
676.000000	0.073719 
674.000000	0.073464 
672.000000	0.073557 
670.000000	0.073576 
668.000000	0.073410 
666.000000	0.073627 
664.000000	0.073591 
662.000000	0.073613 
660.000000	0.073814 
658.000000	0.073550 
656.000000	0.073501 
654.000000	0.073373 
652.000000	0.073315 
650.000000	0.073040 
648.000000	0.072124 
646.000000	0.071635 
644.000000	0.071441 
642.000000	0.071809 
640.000000	0.071882 
638.000000	0.072021 
636.000000	0.072351 
634.000000	0.072636 
632.000000	0.072633 
630.000000	0.073029 
628.000000	0.072981 
626.000000	0.073216 
624.000000	0.073499 
622.000000	0.073616 
620.000000	0.073763 
618.000000	0.073936 
616.000000	0.073898 
614.000000	0.074230 
612.000000	0.074375 
610.000000	0.074484 
608.000000	0.074814 
606.000000	0.074968 
604.000000	0.075066 
602.000000	0.075544 
600.000000	0.075708 
598.000000	0.076011 
596.000000	0.076323 
594.000000	0.076591 
592.000000	0.077041 
590.000000	0.077364 
588.000000	0.078115 
586.000000	0.078422 
584.000000	0.079055 
582.000000	0.079754 
580.000000	0.080464 
578.000000	0.081292 
576.000000	0.082018 
574.000000	0.083057 
572.000000	0.084012 
570.000000	0.085183 
568.000000	0.086356 
566.000000	0.087470 
564.000000	0.088844 
562.000000	0.090188 
560.000000	0.091488 
558.000000	0.092785 
556.000000	0.094274 
554.000000	0.095837 
552.000000	0.097250 
550.000000	0.098748 
548.000000	0.100322 
546.000000	0.101527 
544.000000	0.102844 
542.000000	0.104135 
540.000000	0.105154 
538.000000	0.106086 
536.000000	0.107013 
534.000000	0.107521 
532.000000	0.107873 
530.000000	0.108123 
528.000000	0.107952 
526.000000	0.107792 
524.000000	0.107301 
522.000000	0.106525 
520.000000	0.105876 
518.000000	0.104954 
516.000000	0.104013 
514.000000	0.102792 
512.000000	0.101437 
510.000000	0.100245 
508.000000	0.098928 
506.000000	0.097721 
504.000000	0.096476 
502.000000	0.095084 
500.000000	0.093923 
498.000000	0.092811 
496.000000	0.091801 
494.000000	0.090972 
492.000000	0.090042 
490.000000	0.089280 
488.000000	0.088568 
486.000000	0.088073 
484.000000	0.087576 
482.000000	0.087054 
480.000000	0.086704 
478.000000	0.086251 
476.000000	0.085723 
474.000000	0.085425 
472.000000	0.085153 
470.000000	0.084929 
468.000000	0.084749 
466.000000	0.084677 
464.000000	0.084658 
462.000000	0.084600 
460.000000	0.084585 
458.000000	0.084603 
456.000000	0.084503 
454.000000	0.084606 
452.000000	0.084672 
450.000000	0.084632 
448.000000	0.084837 
446.000000	0.084936 
444.000000	0.085066 
442.000000	0.085187 
440.000000	0.085266 
438.000000	0.085419 
436.000000	0.085566 
434.000000	0.085686 
432.000000	0.085834 
430.000000	0.086032 
428.000000	0.086134 
426.000000	0.086122 
424.000000	0.086403 
422.000000	0.086497 
420.000000	0.086610 
418.000000	0.086917 
416.000000	0.087031 
414.000000	0.087322 
412.000000	0.087590 
410.000000	0.087741 
408.000000	0.088004 
406.000000	0.088275 
404.000000	0.088620 
402.000000	0.088914 
400.000000	0.089247 

